Nuclear excitation energy [MeV]	Optimal DM mass [MeV]
11.083686999999998	11.07906337917591
12.67221699999999	12.667593027597388
14.298885	14.294260667701401
15.954131999999994	15.949507301608115
16.732240999999995	16.727616129555813
17.228590999999994	17.22396601981917
17.361999999999995	17.357374990326026
17.69947299999999	17.694847915723358
18.216430999999996	18.211805801453107
18.289008999999997	18.284383785411148
18.558547	18.55392172583706
19.272980999999994	19.26835556794617
19.409212	19.404586537841478
19.743546999999992	19.738921463962637
19.906587999999992	19.901962427936823
20.24729899999999	20.242673352656468
20.717435999999992	20.71281024878757
20.976286999999992	20.97166119160283
21.28797099999999	21.28334512275015
21.546325	21.541699065681513
21.916796999999995	21.912170983851702
22.23987	22.23524391249613
22.63741199999999	22.63278582469897
23.151957	23.147330711071554
23.676200999999992	23.671574595313633
24.077032	24.07240550681415
24.477605	24.47297841837824
24.863989	24.859362333081123
25.267703	25.26307624396479
25.661045999999992	25.65641915714413
26.093220999999996	26.0885940617595
26.680792999999998	26.676165932089493
27.08572999999999	27.081102842732836
27.625601999999997	27.620974723610487
27.958043999999997	27.953416650263133
28.465062999999997	28.460435538406855
28.984675	28.980047423782793
29.544822999999997	29.5401953002284
30.06296199999999	30.058334185950887
30.553664999999995	30.54903707773397
31.072003999999996	31.067375963432315
31.532825999999996	31.52819786182257
32.141206	32.13657772768898
32.617766	32.613137622628265
33.129636999999995	33.12500850979239
33.69586399999999	33.69123538498561
34.22301699999999	34.218388268802
34.822188	34.81755913675799
35.395219999999995	35.390591010486546
36.02945999999999	36.02483087074119
36.587898	36.5832687477095
37.16982099999999	37.16519161951541
37.66492399999999	37.660294510456566
38.240869	38.23623938360095
38.83026199999999	38.82563225379514
39.39495399999999	39.39032412944055
40.02306099999999	40.01843099113362
40.61219799999999	40.6075678614198
41.253868	41.249237720152685
41.857097	41.852466587360986
42.462212	42.4575814541661
43.08268499999999	43.078054317603076
43.70801099999999	43.70338017998452
44.382741	44.37811003150742
45.031899	45.02726788867118
45.685689	45.68105774482913
46.38724799999999	46.382616590492106
47.05356	47.0489284439232
47.73497599999999	47.73034429404589
48.39182199999999	48.38719014958607
49.10594699999999	49.10131499254361
49.787712	49.78307984263153
50.489346	50.48471368836477
51.202839	51.198206531505306
51.902564	51.897931377686966
52.577086	52.572453229422166
53.31233699999999	53.30770406782334
54.02287299999999	54.018239911670925
54.72362199999999	54.71898875768308
55.456186	55.451552596718365
56.193896	56.18926243463764
56.909995	56.90536127731899
57.64883499999999	57.64420111501867
58.381672	58.3770379540512
59.11943699999999	59.11480279201538
59.863596	59.85896162858943
60.596925	60.59229046755562
61.33836899999999	61.33373430475358
62.081757	62.077122141538396
62.82657999999999	62.82194497802176
63.57767299999999	63.573037813142285
64.324264	64.31962864926452
65.090392	65.0857564811121
65.84944499999999	65.84480931452613
66.61037099999999	66.6057351475425
67.377129	67.3724929792925
68.155874	68.1512378084258
68.92587499999999	68.92123863949097
69.68293499999999	69.67829847340812
70.463456	70.45881930219154
71.237212	71.23257513247191
72.006858	72.00222096366643
72.79192099999999	72.7872837914924
73.574129	73.56949161995723
74.357244	74.35260644823575
75.140284	75.1356462765431
75.932379	75.92774110287752
76.72639799999999	76.7217599288025
